x (m),T,CH4,O2,CO2,CO,Ar,C2H2,H2,H2O,N2
0,274.05,0.7875,0.005797,0.008049,0.01155,2.43E-05,3.86E-04,1.88E-02,3.66E-02,0.1313
0.0002,279.6,0.7783,0.005691,0.008321,0.01238,1.24E-04,3.97E-04,1.90E-02,3.89E-02,0.13697
0.0004,295.15,0.7662,0.005918,0.009293,0.01259,3.78E-04,4.46E-04,1.94E-02,3.99E-02,0.14581
0.0006,324.7,0.7489,0.006399,0.01013,0.01169,6.20E-04,6.39E-04,1.95E-02,4.43E-02,0.15777
0.0008,351.25,0.7237,0.006823,0.01208,0.01354,8.77E-04,8.25E-04,2.03E-02,4.64E-02,0.17547
0.001,389.55,0.6918,0.007072,0.01418,0.0142,1.18E-03,9.46E-04,2.09E-02,5.09E-02,0.19885
0.0012,431.05,0.6555,0.007279,0.01649,0.01408,1.82E-03,1.13E-03,2.15E-02,5.94E-02,0.22281
0.0014,470.95,0.6232,0.00749,0.01913,0.01435,2.28E-03,1.37E-03,2.27E-02,6.45E-02,0.24496
0.0016,510.5,0.5928,0.007891,0.02122,0.01632,2.84E-03,1.51E-03,2.37E-02,6.85E-02,0.26515
0.0018,560.05,0.55,0.007488,0.02445,0.01678,3.16E-03,1.82E-03,2.49E-02,7.83E-02,0.29312
0.002,604.3,0.5194,0.007004,0.02674,0.01812,3.75E-03,2.10E-03,2.56E-02,8.36E-02,0.31371
0.0022,675.95,0.481,0.00751,0.03115,0.01754,4.61E-03,2.42E-03,2.70E-02,8.77E-02,0.34114
0.0024,731.7,0.4403,0.007344,0.03406,0.02047,5.43E-03,2.78E-03,2.84E-02,9.36E-02,0.36763
0.0026,782.4,0.413,0.006736,0.03651,0.02156,6.04E-03,3.08E-03,2.93E-02,9.83E-02,0.38554
0.0028,837.85,0.3753,0.006277,0.04052,0.02304,6.78E-03,3.36E-03,3.05E-02,1.04E-01,0.41079
0.003,894.75,0.3387,0.00592,0.04309,0.02299,7.64E-03,3.75E-03,3.15E-02,1.12E-01,0.43491
0.0032,930.85,0.3029,0.005145,0.0476,0.02364,8.17E-03,4.01E-03,3.29E-02,1.16E-01,0.45921
0.0034,995.05,0.2729,0.005289,0.05011,0.02464,9.10E-03,4.42E-03,3.39E-02,1.21E-01,0.47917
0.0036,1031,0.2414,0.004281,0.05296,0.02484,9.64E-03,4.47E-03,3.42E-02,1.28E-01,0.50004
0.0038,1088.1,0.2189,0.004113,0.05546,0.02462,1.01E-02,4.72E-03,3.44E-02,1.32E-01,0.51556
0.004,1139.9,0.1891,0.003345,0.05729,0.02592,1.00E-02,4.71E-03,3.41E-02,1.40E-01,0.53567
0.0042,1183.05,0.1604,0.003192,0.06043,0.02642,1.03E-02,4.81E-03,3.45E-02,1.44E-01,0.55569
0.0044,1227.35,0.1334,0.002675,0.06351,0.02821,1.08E-02,4.79E-03,3.45E-02,1.47E-01,0.57464
0.0046,1271.15,0.1064,0.002678,0.06672,0.02783,1.12E-02,4.81E-03,3.42E-02,1.52E-01,0.5941
0.0048,1313.8,0.08962,0.001825,0.06893,0.0298,1.04E-02,4.32E-03,3.33E-02,1.54E-01,0.60728
0.005,1361.35,0.07081,0.001926,0.07131,0.02875,1.02E-02,4.06E-03,3.23E-02,1.59E-01,0.62203
0.0052,1415.75,0.05412,0.002092,0.07582,0.02744,9.81E-03,3.54E-03,3.12E-02,1.59E-01,0.6372
0.0054,1461.3,0.04253,0.001739,0.07784,0.02685,9.71E-03,2.89E-03,3.02E-02,1.61E-01,0.64694
0.0056,1534.3,0.03005,0.001844,0.08032,0.02693,9.17E-03,2.47E-03,2.83E-02,1.62E-01,0.65858
0.0058,1583.1,0.01616,0.002649,0.08298,0.02337,9.43E-03,1.38E-03,2.64E-02,1.66E-01,0.67171
0.006,1643.15,0.008983,0.00541,0.08259,0.02374,9.08E-03,1.34E-03,1.88E-02,1.65E-01,0.68311
0.0062,1734.35,0.002853,0.01133,0.08054,0.01984,8.56E-03,5.72E-04,1.20E-02,1.66E-01,0.69496
0.0064,1777.15,0.001002,0.02235,0.07612,0.01274,8.16E-03,9.32E-06,9.45E-03,1.63E-01,0.70274
0.0066,1806.45,0.00017,0.03265,0.07381,0.007806,8.05E-03,-9.20E-06,5.01E-03,1.56E-01,0.71147
0.0068,1775.35,0.00007611,0.04403,0.06616,0.005628,7.93E-03,-6.21E-06,3.41E-03,1.53E-01,0.71509
0.007,1690.15,0.00008365,0.05927,0.05835,0.003015,8.20E-03,-6.33E-06,2.41E-03,1.44E-01,0.7204
0.0072,1613.65,0.00005516,0.07492,0.05051,0.001685,8.31E-03,-8.57E-06,1.59E-03,1.33E-01,0.72596
0.0074,1520.75,0.00006256,0.08956,0.0438,0.00159,7.96E-03,-6.70E-06,9.12E-04,1.22E-01,0.73179
0.0076,1383.9,0.00003295,0.1025,0.03986,0.0005919,7.94E-03,-2.78E-06,6.32E-04,1.09E-01,0.73782
0.0078,1224.6,0.00005914,0.1132,0.03566,0.0007791,8.05E-03,-3.27E-06,5.35E-04,9.84E-02,0.74207
0.008,1140.5,0.00004266,0.1286,0.02728,0.000651,8.15E-03,-2.30E-06,2.83E-04,8.73E-02,0.74674
0.0082,987.2,0.00003078,0.1385,0.02423,0.00008963,8.11E-03,-6.04E-06,2.08E-04,7.73E-02,0.75125
0.0084,872.8,0.00003006,0.1466,0.01998,0.0003983,8.00E-03,-1.59E-06,2.10E-04,7.07E-02,0.75388
0.0086,770.15,0.00002357,0.1562,0.01618,0.0007609,8.03E-03,-3.01E-06,1.82E-04,6.10E-02,0.7576
0.0088,658.3,0.00002667,0.1667,0.01158,0.0006586,7.94E-03,-7.09E-07,1.75E-04,5.14E-02,0.76151
0.009,527.55,0.00001783,0.1737,0.008599,0.0009391,8.02E-03,-1.81E-06,1.78E-04,4.44E-02,0.76414
0.0092,401.05,0.00003517,0.1789,0.007267,0.0009494,8.13E-03,2.41E-06,1.73E-04,3.81E-02,0.76652
0.0094,342.65,0.00002535,0.1844,0.005522,0.0007512,7.97E-03,1.22E-06,1.39E-04,3.21E-02,0.7691
0.0096,269.45,0.0000506,0.188,0.004734,0.0007159,8.09E-03,5.17E-07,1.20E-04,2.74E-02,0.77087
0.0098,256.35,0.0000571,0.1937,0.002978,0.0008344,7.58E-03,-5.02E-07,8.15E-05,2.10E-02,0.77378
0.01,180.55,0.00005529,0.1947,0.003011,0.000977,7.90E-03,-1.37E-07,1.17E-04,1.89E-02,0.77425
